Simulated reservoir pressure (Run 1 - Model output ) - 1151 points_Elapsed time Simulated reservoir pressure (Run 1 - Model output ) - 1151 points_Pressure	
(hr) (psia)                                                                                                                                                	
0.00000 5000.00                                                                                                                                            	
6.00000 4985.35                                                                                                                                            	
7.92980 4982.34                                                                                                                                            	
11.6687 4977.85                                                                                                                                            	
19.1464 4971.03                                                                                                                                            	
34.1018 4960.86                                                                                                                                            	
64.0127 4945.92                                                                                                                                            	
121.854 4924.92                                                                                                                                            	
237.537 4894.70                                                                                                                                            	
460.753 4852.84                                                                                                                                            	
855.477 4798.84                                                                                                                                            	
1585.43 4725.68                                                                                                                                            	
2999.81 4622.65                                                                                                                                            	
4535.81 4533.87                                                                                                                                            	
6071.81 4458.56                                                                                                                                            	
7607.81 4392.15                                                                                                                                            	
9143.81 4332.15                                                                                                                                            	
10679.8 4277.02                                                                                                                                            	
12215.8 4225.77                                                                                                                                            	
13751.8 4177.67                                                                                                                                            	
15287.8 4132.22                                                                                                                                            	
16823.8 4089.02                                                                                                                                            	
18359.8 4047.78                                                                                                                                            	
19895.8 4008.26                                                                                                                                            	
21431.8 3970.27                                                                                                                                            	
22967.8 3933.64                                                                                                                                            	
24503.8 3898.25                                                                                                                                            	
26039.8 3863.98                                                                                                                                            	
27575.8 3830.75                                                                                                                                            	
29111.8 3798.47                                                                                                                                            	
30647.8 3767.08                                                                                                                                            	
32183.8 3736.52                                                                                                                                            	
33719.8 3706.72                                                                                                                                            	
35255.8 3677.66                                                                                                                                            	
36791.8 3649.28                                                                                                                                            	
38327.8 3621.55                                                                                                                                            	
39863.8 3594.43                                                                                                                                            	
41399.8 3567.89                                                                                                                                            	
42935.8 3541.92                                                                                                                                            	
44471.8 3516.48                                                                                                                                            	
46007.8 3491.54                                                                                                                                            	
47543.8 3467.09                                                                                                                                            	
49079.8 3443.12                                                                                                                                            	
50615.8 3419.53                                                                                                                                            	
52151.8 3396.38                                                                                                                                            	
53687.8 3373.64                                                                                                                                            	
55223.8 3351.32                                                                                                                                            	
56759.8 3329.38                                                                                                                                            	
58295.8 3307.82                                                                                                                                            	
59831.8 3286.62                                                                                                                                            	
61367.8 3265.78                                                                                                                                            	
62903.8 3245.28                                                                                                                                            	
64439.8 3225.11                                                                                                                                            	
65975.8 3205.26                                                                                                                                            	
67511.8 3185.72                                                                                                                                            	
69047.8 3166.48                                                                                                                                            	
70583.8 3147.54                                                                                                                                            	
72119.8 3128.89                                                                                                                                            	
73655.8 3110.51                                                                                                                                            	
75191.8 3092.40                                                                                                                                            	
76727.8 3074.55                                                                                                                                            	
78263.8 3056.96                                                                                                                                            	
79799.8 3039.62                                                                                                                                            	
81335.8 3022.53                                                                                                                                            	
82871.8 3005.66                                                                                                                                            	
84407.8 2989.03                                                                                                                                            	
85943.8 2972.63                                                                                                                                            	
87600.0 2955.19                                                                                                                                            	
89136.0 2939.23                                                                                                                                            	
90672.0 2923.49                                                                                                                                            	
92208.0 2907.95                                                                                                                                            	
93744.0 2892.60                                                                                                                                            	
95280.0 2877.46                                                                                                                                            	
96816.0 2862.50                                                                                                                                            	
98352.0 2847.73                                                                                                                                            	
99888.0 2833.14                                                                                                                                            	
1.01424E+5 2818.73                                                                                                                                         	
1.02960E+5 2804.50                                                                                                                                         	
1.04496E+5 2790.43                                                                                                                                         	
1.06032E+5 2776.54                                                                                                                                         	
1.07568E+5 2762.80                                                                                                                                         	
1.09104E+5 2749.23                                                                                                                                         	
1.10640E+5 2735.81                                                                                                                                         	
1.12176E+5 2722.55                                                                                                                                         	
1.13712E+5 2709.44                                                                                                                                         	
1.15248E+5 2696.48                                                                                                                                         	
1.16784E+5 2683.66                                                                                                                                         	
1.18320E+5 2670.98                                                                                                                                         	
1.19856E+5 2658.45                                                                                                                                         	
1.21392E+5 2646.05                                                                                                                                         	
1.22928E+5 2633.79                                                                                                                                         	
1.24464E+5 2621.65                                                                                                                                         	
1.26000E+5 2609.65                                                                                                                                         	
1.27536E+5 2597.77                                                                                                                                         	
1.29072E+5 2586.02                                                                                                                                         	
1.30608E+5 2574.39                                                                                                                                         	
1.32144E+5 2562.88                                                                                                                                         	
1.33680E+5 2551.49                                                                                                                                         	
1.35216E+5 2540.22                                                                                                                                         	
1.36752E+5 2529.06                                                                                                                                         	
1.38288E+5 2518.01                                                                                                                                         	
1.39824E+5 2507.07                                                                                                                                         	
1.41360E+5 2496.24                                                                                                                                         	
1.42896E+5 2485.52                                                                                                                                         	
1.44432E+5 2474.90                                                                                                                                         	
1.45968E+5 2464.38                                                                                                                                         	
1.47504E+5 2453.97                                                                                                                                         	
1.49040E+5 2443.66                                                                                                                                         	
1.50576E+5 2433.44                                                                                                                                         	
1.52112E+5 2423.32                                                                                                                                         	
1.53648E+5 2413.29                                                                                                                                         	
1.55184E+5 2403.36                                                                                                                                         	
1.56720E+5 2393.53                                                                                                                                         	
1.58256E+5 2383.78                                                                                                                                         	
1.59792E+5 2374.12                                                                                                                                         	
1.61328E+5 2364.54                                                                                                                                         	
1.62864E+5 2355.06                                                                                                                                         	
1.64400E+5 2345.66                                                                                                                                         	
1.65936E+5 2336.34                                                                                                                                         	
1.67472E+5 2327.11                                                                                                                                         	
1.69008E+5 2317.96                                                                                                                                         	
1.70544E+5 2308.88                                                                                                                                         	
1.72080E+5 2299.89                                                                                                                                         	
1.73616E+5 2290.97                                                                                                                                         	
